tempo,x,y,theta,vel_dir,vel_esq
0,-2.95639e-09,0,-4.5,-14.7262,14.7262
0.01,-5.90367e-09,2.31956e-10,-9.00004,-14.7264,14.7263
0.02,-8.91785e-09,7.09358e-10,-13.5001,-14.7265,14.7265
0.03,-1.17926e-08,1.39952e-09,-18.0003,-14.7267,14.7266
0.04,-1.46042e-08,2.31311e-09,-22.5005,-14.7268,14.7268
0.05,-1.74237e-08,3.48099e-09,-27.0007,-14.727,14.7269
0.06,-2.00578e-08,4.82319e-09,-31.5009,-14.7271,14.7271
0.07,-2.25786e-08,6.36794e-09,-36.0013,-14.7273,14.7272
0.08,-2.50474e-08,8.16178e-09,-40.5016,-14.7274,14.7274
0.09,-2.72954e-08,1.00819e-08,-45.002,-14.7276,14.7275
0.1,1.74072e-06,-1.75806e-06,-49.5024,-14.7149,14.7399
0.11,0.00360651,-0.00422276,-53.7778,13.7628,41.7451
0.12,0.00995016,-0.0128832,-57.8417,40.3771,66.9752
0.13,0.0182289,-0.0260509,-61.7067,65.1214,90.4181
0.14,0.0277141,-0.0436717,-65.3847,88.0218,112.094
0.15,0.0377597,-0.0655976,-68.8866,109.128,132.048
0.16,0.0478042,-0.0916105,-72.2226,128.507,150.341
0.17,0.0573694,-0.121443,-75.4023,146.236,167.047
0.18,0.0660555,-0.154795,-78.4345,162.401,182.247
0.19,0.0735361,-0.191349,-81.3274,177.091,196.025
0.2,0.0795505,-0.23078,-84.0886,190.397,208.469
0.21,0.0838974,-0.272763,-86.7253,202.409,219.665
0.22,0.0864275,-0.316982,-89.244,213.214,229.699
0.23,0.0870365,-0.363133,-91.6509,222.9,238.653
0.24,0.085659,-0.410929,-93.9518,231.547,246.606
0.25,0.0822623,-0.460098,-96.1521,239.234,253.635
0.26,0.0768413,-0.510391,-98.2567,246.035,259.81
0.27,0.0694135,-0.561577,-100.271,252.02,265.2
0.28,0.0600152,-0.613445,-102.198,257.254,269.868
0.29,0.0486971,-0.665803,-104.043,261.798,273.873
0.3,0.0355218,-0.718478,-105.809,265.708,277.271
0.31,0.0205608,-0.771316,-107.501,269.039,280.112
0.32,0.00389186,-0.824178,-109.122,271.839,282.446
0.33,-0.0144025,-0.876944,-110.675,274.153,284.315
0.34,-0.0342371,-0.929504,-112.163,276.024,285.761
0.35,-0.055525,-0.981766,-113.589,277.49,286.822
0.36,-0.0781792,-1.03365,-114.955,278.587,287.532
0.37,-0.102113,-1.08508,-116.265,279.348,287.923
0.38,-0.127241,-1.136,-117.522,279.804,288.025
0.39,-0.15348,-1.18636,-118.726,279.982,287.865
0.4,-0.18075,-1.23611,-119.881,279.908,287.467
0.41,-0.20897,-1.28523,-120.989,279.605,286.855
0.42,-0.238068,-1.33368,-122.051,279.095,286.049
0.43,-0.267969,-1.38143,-123.07,278.398,285.068
0.44,-0.298606,-1.42849,-124.047,277.532,283.929
0.45,-0.329912,-1.47482,-124.985,276.513,282.65
0.46,-0.361826,-1.52042,-125.885,275.356,281.244
0.47,-0.394287,-1.56529,-126.748,274.076,279.725
0.48,-0.427241,-1.60942,-127.576,272.685,278.105
0.49,-0.460634,-1.65282,-128.371,271.194,276.395
0.5,-0.494416,-1.69549,-129.133,269.615,274.606
0.51,-0.528541,-1.73743,-129.865,267.957,272.746
0.52,-0.562965,-1.77865,-130.567,266.228,270.824
0.53,-0.597647,-1.81916,-131.241,264.437,268.848
0.54,-0.632548,-1.85897,-131.888,262.592,266.825
0.55,-0.667631,-1.89809,-132.509,260.699,264.761
0.56,-0.702864,-1.93653,-133.105,258.763,262.663
0.57,-0.738215,-1.9743,-133.676,256.791,260.534
0.58,-0.773653,-2.01141,-134.225,254.788,258.381
0.59,-0.809153,-2.04788,-134.752,252.759,256.207
0.6,-0.844687,-2.08373,-135.258,250.707,254.016
0.61,-0.880233,-2.11895,-135.743,248.636,251.813
0.62,-0.915769,-2.15358,-136.209,246.551,249.6
0.63,-0.951272,-2.18762,-136.656,244.453,247.38
0.64,-0.986726,-2.22108,-137.086,242.347,245.156
0.65,-1.02211,-2.25398,-137.498,240.234,242.931
0.66,-1.05741,-2.28633,-137.893,238.117,240.706
0.67,-1.09261,-2.31814,-138.273,235.998,238.484
0.68,-1.1277,-2.34943,-138.637,233.879,236.265
0.69,-1.16266,-2.38021,-138.987,231.763,234.053
0.7,-1.19749,-2.4105,-139.323,229.649,231.848
0.71,-1.23216,-2.4403,-139.646,227.541,229.651
0.72,-1.26667,-2.46962,-139.955,225.438,227.465
0.73,-1.30102,-2.49849,-140.253,223.344,225.289
0.74,-1.33519,-2.5269,-140.538,221.257,223.124
0.75,-1.36917,-2.55488,-140.812,219.18,220.973
0.76,-1.40296,-2.58242,-141.075,217.113,218.834
0.77,-1.43655,-2.60955,-141.327,215.057,216.71
0.78,-1.46993,-2.63627,-141.569,213.013,214.599
0.79,-1.50311,-2.66259,-141.802,210.981,212.504
0.8,-1.53606,-2.68853,-142.025,208.963,210.424
0.81,-1.5688,-2.71408,-142.24,206.957,208.36
0.82,-1.60132,-2.73927,-142.446,204.965,206.312
0.83,-1.63361,-2.76409,-142.643,202.987,204.28
0.84,-1.66566,-2.78856,-142.833,201.024,202.265
0.85,-1.69748,-2.81269,-143.015,199.075,200.267
0.86,-1.72907,-2.83648,-143.19,197.142,198.286
0.87,-1.76042,-2.85994,-143.358,195.223,196.322
0.88,-1.79153,-2.88308,-143.519,193.32,194.375
0.89,-1.82239,-2.9059,-143.673,191.433,192.445
0.9,-1.85302,-2.92842,-143.822,189.561,190.533
0.91,-1.88339,-2.95063,-143.964,187.705,188.638
0.92,-1.91353,-2.97255,-144.101,185.864,186.76
0.93,-1.94341,-2.99418,-144.233,184.04,184.9
0.94,-1.97305,-3.01554,-144.359,182.231,183.057
0.95,-2.00244,-3.03661,-144.48,180.439,181.231
0.96,-2.03159,-3.05741,-144.596,178.662,179.422
0.97,-2.06049,-3.07795,-144.708,176.901,177.631
0.98,-2.08914,-3.09823,-144.815,175.156,175.857
0.99,-2.11754,-3.11826,-144.918,173.427,174.1
1,-2.1457,-3.13803,-145.016,171.714,172.36
1.01,-2.17361,-3.15757,-145.111,170.016,170.636
1.02,-2.20127,-3.17686,-145.202,168.335,168.93
1.03,-2.22869,-3.19591,-145.289,166.668,167.24
1.04,-2.25586,-3.21474,-145.373,165.018,165.567
1.05,-2.2828,-3.23334,-145.454,163.383,163.91
1.06,-2.30949,-3.25171,-145.531,161.763,162.269
1.07,-2.33593,-3.26987,-145.605,160.159,160.644
1.08,-2.36214,-3.28781,-145.676,158.57,159.036
1.09,-2.38811,-3.30554,-145.744,156.996,157.443
1.1,-2.41384,-3.32306,-145.81,155.438,155.867
1.11,-2.43933,-3.34038,-145.873,153.894,154.306
1.12,-2.46459,-3.3575,-145.933,152.365,152.76
1.13,-2.48962,-3.37442,-145.991,150.85,151.23
1.14,-2.51441,-3.39115,-146.047,149.351,149.715
1.15,-2.53897,-3.40768,-146.1,147.865,148.215
1.16,-2.5633,-3.42403,-146.152,146.395,146.73
1.17,-2.5874,-3.4402,-146.201,144.938,145.26
1.18,-2.61127,-3.45618,-146.248,143.496,143.805
1.19,-2.63492,-3.47198,-146.293,142.067,142.364
1.2,-2.65835,-3.48761,-146.337,140.653,140.938
1.21,-2.68155,-3.50306,-146.379,139.253,139.526
1.22,-2.70453,-3.51834,-146.419,137.866,138.128
1.23,-2.7273,-3.53346,-146.457,136.492,136.744
1.24,-2.74984,-3.5484,-146.494,135.133,135.374
1.25,-2.77217,-3.56319,-146.53,133.786,134.018
1.26,-2.79429,-3.57781,-146.564,132.453,132.675
1.27,-2.81619,-3.59227,-146.596,131.133,131.346
1.28,-2.83789,-3.60658,-146.628,129.825,130.03
1.29,-2.85937,-3.62073,-146.658,128.531,128.728
1.3,-2.88065,-3.63473,-146.686,127.25,127.438
1.31,-2.90172,-3.64858,-146.714,125.981,126.162
1.32,-2.92258,-3.66228,-146.741,124.724,124.898
1.33,-2.94325,-3.67583,-146.766,123.48,123.647
1.34,-2.96371,-3.68924,-146.791,122.249,122.409
1.35,-2.98398,-3.7025,-146.814,121.029,121.183
1.36,-3.00405,-3.71563,-146.837,119.822,119.969
1.37,-3.02392,-3.72862,-146.858,118.626,118.768
1.38,-3.0436,-3.74146,-146.879,117.443,117.578
1.39,-3.06308,-3.75418,-146.899,116.271,116.401
1.4,-3.08238,-3.76676,-146.918,115.11,115.235
1.41,-3.10149,-3.7792,-146.936,113.961,114.081
1.42,-3.12041,-3.79152,-146.954,112.824,112.939
1.43,-3.13914,-3.80371,-146.971,111.698,111.808
1.44,-3.15769,-3.81577,-146.987,110.583,110.688
1.45,-3.17606,-3.82771,-147.002,109.479,109.58
1.46,-3.19425,-3.83952,-147.017,108.386,108.483
1.47,-3.21226,-3.8512,-147.031,107.304,107.397
1.48,-3.23009,-3.86277,-147.045,106.232,106.322
1.49,-3.24775,-3.87422,-147.058,105.172,105.257
1.5,-3.26523,-3.88555,-147.071,104.121,104.204
1.51,-3.28255,-3.89676,-147.083,103.082,103.161
1.52,-3.29969,-3.90785,-147.094,102.052,102.128
1.53,-3.31666,-3.91884,-147.105,101.033,101.106
1.54,-3.33346,-3.9297,-147.116,100.024,100.094
1.55,-3.3501,-3.94046,-147.126,99.0251,99.0918
1.56,-3.36657,-3.95111,-147.136,98.036,98.1
1.57,-3.38288,-3.96164,-147.145,97.0568,97.1181
1.58,-3.39903,-3.97207,-147.154,96.0873,96.1461
1.59,-3.41502,-3.98239,-147.163,95.1275,95.1838
1.6,-3.43085,-3.99261,-147.171,94.1773,94.2312
1.61,-3.44652,-4.00272,-147.179,93.2365,93.2882
1.62,-3.46204,-4.01273,-147.187,92.3051,92.3546
1.63,-3.4774,-4.02264,-147.194,91.3829,91.4304
1.64,-3.49262,-4.03244,-147.201,90.47,90.5154
1.65,-3.50768,-4.04215,-147.207,89.5661,89.6097
1.66,-3.52259,-4.05176,-147.214,88.6712,88.713
1.67,-3.53735,-4.06127,-147.22,87.7853,87.8253
1.68,-3.55197,-4.07068,-147.226,86.9082,86.9465
1.69,-3.56644,-4.08,-147.231,86.0398,86.0765
1.7,-3.58077,-4.08922,-147.237,85.1801,85.2152
1.71,-3.59495,-4.09835,-147.242,84.329,84.3626
1.72,-3.609,-4.10739,-147.247,83.4863,83.5185
1.73,-3.6229,-4.11633,-147.251,82.6521,82.6829
1.74,-3.63667,-4.12518,-147.256,81.8262,81.8556
1.75,-3.6503,-4.13395,-147.26,81.0085,81.0367
1.76,-3.66379,-4.14263,-147.264,80.199,80.2259
1.77,-3.67715,-4.15121,-147.268,79.3975,79.4233
1.78,-3.69038,-4.15972,-147.272,78.6041,78.6287
1.79,-3.70347,-4.16813,-147.276,77.8185,77.8421
1.8,-3.71644,-4.17646,-147.279,77.0408,77.0634
1.81,-3.72927,-4.18471,-147.282,76.2709,76.2924
1.82,-3.74198,-4.19287,-147.286,75.5086,75.5292
1.83,-3.75456,-4.20095,-147.289,74.754,74.7736
1.84,-3.76702,-4.20895,-147.291,74.0069,74.0257
1.85,-3.77935,-4.21687,-147.294,73.2672,73.2851
1.86,-3.79156,-4.22471,-147.297,72.5349,72.552
1.87,-3.80364,-4.23247,-147.299,71.8099,71.8263
1.88,-3.81561,-4.24015,-147.302,71.0922,71.1078
1.89,-3.82746,-4.24776,-147.304,70.3816,70.3965
1.9,-3.83919,-4.25529,-147.306,69.6782,69.6924
1.91,-3.8508,-4.26274,-147.308,68.9817,68.9952
1.92,-3.86229,-4.27012,-147.31,68.2922,68.3051
1.93,-3.87367,-4.27742,-147.312,67.6096,67.6219
1.94,-3.88494,-4.28465,-147.314,66.9338,66.9455
1.95,-3.8961,-4.29181,-147.316,66.2648,66.2759
1.96,-3.90714,-4.2989,-147.317,65.6024,65.613
1.97,-3.91807,-4.30591,-147.319,64.9466,64.9567
1.98,-3.9289,-4.31286,-147.32,64.2974,64.307
1.99,-3.93962,-4.31973,-147.322,63.6547,63.6638
2,-3.95023,-4.32654,-147.323,63.0184,63.0271
2.01,-3.96073,-4.33327,-147.324,62.3885,62.3967
2.02,-3.97113,-4.33994,-147.325,61.7648,61.7726
2.03,-3.98142,-4.34655,-147.326,61.1474,61.1548
2.04,-3.99161,-4.35308,-147.328,60.5361,60.5431
2.05,-4.0017,-4.35955,-147.329,59.931,59.9376
2.06,-4.01169,-4.36596,-147.329,59.3319,59.3381
2.07,-4.02158,-4.3723,-147.33,58.7388,58.7447
2.08,-4.03137,-4.37858,-147.331,58.1516,58.1571
2.09,-4.04107,-4.38479,-147.332,57.5703,57.5755
2.1,-4.05066,-4.39095,-147.333,56.9947,56.9997
2.11,-4.06016,-4.39704,-147.334,56.425,56.4296
2.12,-4.06957,-4.40307,-147.334,55.8609,55.8652
2.13,-4.07888,-4.40904,-147.335,55.3024,55.3065
2.14,-4.0881,-4.41495,-147.335,54.7496,54.7534
2.15,-4.09723,-4.4208,-147.336,54.2022,54.2058
2.16,-4.10626,-4.42659,-147.336,53.6604,53.6637
2.17,-4.11521,-4.43233,-147.337,53.1239,53.127
2.18,-4.12406,-4.438,-147.337,52.5928,52.5957
2.19,-4.13283,-4.44362,-147.338,52.067,52.0697
2.2,-4.14151,-4.44919,-147.338,51.5465,51.549
2.21,-4.1501,-4.4547,-147.339,51.0312,51.0335
2.22,-4.15861,-4.46015,-147.339,50.521,50.5231
2.23,-4.16703,-4.46555,-147.339,50.0159,50.0178
2.24,-4.17536,-4.47089,-147.339,49.5159,49.5176
2.25,-4.18362,-4.47618,-147.34,49.0208,49.0224
2.26,-4.19179,-4.48142,-147.34,48.5308,48.5322
2.27,-4.19988,-4.48661,-147.34,48.0456,48.0468
2.28,-4.20789,-4.49174,-147.34,47.5652,47.5663
2.29,-4.21582,-4.49682,-147.34,47.0897,47.0907
2.3,-4.22367,-4.50186,-147.34,46.6189,46.6197
2.31,-4.23144,-4.50684,-147.341,46.1528,46.1535
2.32,-4.23913,-4.51177,-147.341,45.6914,45.692
2.33,-4.24675,-4.51665,-147.341,45.2346,45.2351
2.34,-4.25429,-4.52148,-147.341,44.7824,44.7827
2.35,-4.26175,-4.52627,-147.341,44.3346,44.3349
2.36,-4.26914,-4.53101,-147.341,43.8914,43.8915
2.37,-4.27646,-4.5357,-147.341,43.4526,43.4526
2.38,-4.2837,-4.54034,-147.341,43.0182,43.0181
2.39,-4.29088,-4.54493,-147.341,42.5881,42.5879
2.4,-4.29797,-4.54949,-147.341,42.1623,42.162
2.41,-4.305,-4.55399,-147.341,41.7407,41.7404
2.42,-4.31196,-4.55845,-147.341,41.3234,41.323
2.43,-4.31885,-4.56287,-147.341,40.9103,40.9098
2.44,-4.32567,-4.56724,-147.34,40.5012,40.5007
2.45,-4.33242,-4.57156,-147.34,40.0963,40.0956
2.46,-4.3391,-4.57585,-147.34,39.6954,39.6947
2.47,-4.34572,-4.58009,-147.34,39.2986,39.2977
2.48,-4.35227,-4.58429,-147.34,38.9056,38.9048
2.49,-4.35876,-4.58845,-147.34,38.5167,38.5157
2.5,-4.36518,-4.59256,-147.34,38.1316,38.1306
2.51,-4.37153,-4.59664,-147.34,37.7503,37.7492
2.52,-4.37783,-4.60067,-147.339,37.3729,37.3718
2.53,-4.38406,-4.60466,-147.339,36.9992,36.998
2.54,-4.39022,-4.60862,-147.339,36.6293,36.628
2.55,-4.39633,-4.61253,-147.339,36.263,36.2618
2.56,-4.40237,-4.61641,-147.339,35.9005,35.8992
2.57,-4.40836,-4.62024,-147.338,35.5415,35.5402
2.58,-4.41428,-4.62404,-147.338,35.1862,35.1848
2.59,-4.42015,-4.6278,-147.338,34.8344,34.8329
2.6,-4.42595,-4.63152,-147.338,34.4861,34.4846
2.61,-4.4317,-4.63521,-147.337,34.1413,34.1398
2.62,-4.43739,-4.63885,-147.337,33.7999,33.7984
2.63,-4.44303,-4.64247,-147.337,33.462,33.4604
2.64,-4.44861,-4.64604,-147.337,33.1274,33.1258
2.65,-4.45413,-4.64958,-147.337,32.7962,32.7946
2.66,-4.45959,-4.65309,-147.336,32.4683,32.4666
2.67,-4.46501,-4.65656,-147.336,32.1437,32.142
2.68,-4.47036,-4.65999,-147.336,31.8223,31.8205
2.69,-4.47567,-4.66339,-147.335,31.5041,31.5024
2.7,-4.48092,-4.66676,-147.335,31.1892,31.1873
2.71,-4.48612,-4.67009,-147.335,30.8773,30.8755
2.72,-4.49126,-4.67339,-147.335,30.5686,30.5667
2.73,-4.49636,-4.67666,-147.334,30.263,30.2611
2.74,-4.5014,-4.67989,-147.334,29.9604,29.9585
2.75,-4.5064,-4.68309,-147.334,29.6608,29.6589
2.76,-4.51134,-4.68626,-147.333,29.3643,29.3623
2.77,-4.51623,-4.6894,-147.333,29.0707,29.0687
2.78,-4.52108,-4.69251,-147.333,28.78,28.778
2.79,-4.52588,-4.69558,-147.333,28.4923,28.4903
2.8,-4.53063,-4.69863,-147.332,28.2074,28.2054
2.81,-4.53533,-4.70164,-147.332,27.9254,27.9234
2.82,-4.53998,-4.70463,-147.332,27.6462,27.6441
2.83,-4.54459,-4.70758,-147.331,27.3698,27.3677
2.84,-4.54915,-4.71051,-147.331,27.0961,27.094
2.85,-4.55367,-4.7134,-147.331,26.8252,26.8231
2.86,-4.55814,-4.71627,-147.33,26.557,26.5549
2.87,-4.56256,-4.71911,-147.33,26.2915,26.2893
2.88,-4.56695,-4.72192,-147.33,26.0286,26.0265
2.89,-4.57128,-4.7247,-147.329,25.7684,25.7662
2.9,-4.57558,-4.72745,-147.329,25.5107,25.5085
2.91,-4.57983,-4.73018,-147.329,25.2556,25.2535
2.92,-4.58404,-4.73288,-147.328,25.0031,25.0009
2.93,-4.58821,-4.73555,-147.328,24.7531,24.7509
2.94,-4.59233,-4.7382,-147.328,24.5057,24.5034
2.95,-4.59642,-4.74082,-147.327,24.2606,24.2584
2.96,-4.60046,-4.74341,-147.327,24.0181,24.0158
2.97,-4.60446,-4.74598,-147.327,23.7779,23.7757
2.98,-4.60843,-4.74852,-147.326,23.5402,23.5379
2.99,-4.61235,-4.75103,-147.326,23.3048,23.3025
3,-4.61623,-4.75353,-147.326,23.0718,23.0695
3.01,-4.62008,-4.75599,-147.325,22.8411,22.8388
3.02,-4.62389,-4.75843,-147.325,22.6127,22.6104
3.03,-4.62765,-4.76085,-147.325,22.3866,22.3844
3.04,-4.63139,-4.76324,-147.324,22.1628,22.1605
3.05,-4.63508,-4.76561,-147.324,21.9412,21.9389
3.06,-4.63874,-4.76796,-147.323,21.7219,21.7196
3.07,-4.64236,-4.77028,-147.323,21.5047,21.5024
3.08,-4.64594,-4.77258,-147.323,21.2897,21.2874
3.09,-4.64949,-4.77485,-147.322,21.0768,21.0745
3.1,-4.653,-4.77711,-147.322,20.8661,20.8637
3.11,-4.65648,-4.77934,-147.322,20.6574,20.6551
3.12,-4.65992,-4.78155,-147.321,20.4509,20.4486
3.13,-4.66333,-4.78373,-147.321,20.2464,20.2441
3.14,-4.6667,-4.7859,-147.321,20.044,20.0416
3.15,-4.67004,-4.78804,-147.32,19.8436,19.8412
3.16,-4.67335,-4.79016,-147.32,19.6452,19.6428
3.17,-4.67662,-4.79226,-147.32,19.4487,19.4464
3.18,-4.67986,-4.79434,-147.319,19.2543,19.2519
3.19,-4.68307,-4.7964,-147.319,19.0618,19.0594
3.2,-4.68625,-4.79844,-147.318,18.8712,18.8688
3.21,-4.68939,-4.80045,-147.318,18.6825,18.6801
3.22,-4.69251,-4.80245,-147.318,18.4957,18.4933
3.23,-4.69559,-4.80443,-147.317,18.3108,18.3084
3.24,-4.69864,-4.80639,-147.317,18.1277,18.1253
3.25,-4.70166,-4.80832,-147.317,17.9465,17.9441
3.26,-4.70465,-4.81024,-147.316,17.767,17.7646
3.27,-4.70761,-4.81214,-147.316,17.5894,17.587
3.28,-4.71054,-4.81402,-147.316,17.4135,17.4111
3.29,-4.71345,-4.81588,-147.315,17.2394,17.237
3.3,-4.71632,-4.81773,-147.315,17.067,17.0647
3.31,-4.71916,-4.81955,-147.314,16.8964,16.894
3.32,-4.72198,-4.82136,-147.314,16.7275,16.7251
3.33,-4.72477,-4.82315,-147.314,16.5602,16.5578
3.34,-4.72753,-4.82492,-147.313,16.3946,16.3922
3.35,-4.73026,-4.82667,-147.313,16.2307,16.2283
3.36,-4.73296,-4.82841,-147.313,16.0684,16.066
3.37,-4.73564,-4.83012,-147.312,15.9078,15.9054
3.38,-4.73829,-4.83183,-147.312,15.7487,15.7463
3.39,-4.74091,-4.83351,-147.312,15.5913,15.5889
3.4,-4.74351,-4.83518,-147.311,15.4354,15.433
3.41,-4.74608,-4.83683,-147.311,15.2811,15.2787
3.42,-4.74863,-4.83846,-147.31,15.1283,15.1259
3.43,-4.75115,-4.84008,-147.31,14.9771,14.9746
3.44,-4.75365,-4.84168,-147.31,14.8273,14.8249
3.45,-4.75612,-4.84327,-147.309,14.6791,14.6766
3.46,-4.75856,-4.84483,-147.309,14.5323,14.5299
3.47,-4.76098,-4.84639,-147.309,14.387,14.3846
3.48,-4.76338,-4.84793,-147.308,14.2432,14.2408
3.49,-4.76575,-4.84945,-147.308,14.1008,14.0984
3.5,-4.7681,-4.85096,-147.307,13.9598,13.9574
3.51,-4.77043,-4.85245,-147.307,13.8202,13.8178
3.52,-4.77273,-4.85393,-147.307,13.6821,13.6796
3.53,-4.77501,-4.85539,-147.306,13.5453,13.5428
3.54,-4.77727,-4.85684,-147.306,13.4099,13.4074
3.55,-4.7795,-4.85827,-147.306,13.2758,13.2733
3.56,-4.78172,-4.85969,-147.305,13.143,13.1406
3.57,-4.78391,-4.8611,-147.305,13.0117,13.0092
3.58,-4.78607,-4.86249,-147.305,12.8816,12.8791
3.59,-4.78822,-4.86387,-147.304,12.7528,12.7503
3.6,-4.79034,-4.86523,-147.304,12.6253,12.6228
3.61,-4.79245,-4.86658,-147.303,12.499,12.4966
3.62,-4.79453,-4.86792,-147.303,12.3741,12.3716
3.63,-4.79659,-4.86924,-147.303,12.2504,12.2479
3.64,-4.79863,-4.87055,-147.302,12.1279,12.1254
3.65,-4.80065,-4.87185,-147.302,12.0066,12.0042
3.66,-4.80265,-4.87313,-147.301,11.8866,11.8842
3.67,-4.80463,-4.8744,-147.301,11.7678,11.7653
3.68,-4.80659,-4.87566,-147.301,11.6501,11.6477
3.69,-4.80854,-4.87691,-147.3,11.5336,11.5312
3.7,-4.81046,-4.87814,-147.3,11.4183,11.4159
3.71,-4.81236,-4.87936,-147.3,11.3042,11.3017
3.72,-4.81424,-4.88057,-147.299,11.1912,11.1887
3.73,-4.81611,-4.88177,-147.299,11.0793,11.0768
3.74,-4.81795,-4.88296,-147.298,10.9685,10.966
3.75,-4.81978,-4.88413,-147.298,10.8588,10.8564
3.76,-4.82159,-4.88529,-147.298,10.7503,10.7478
3.77,-4.82338,-4.88644,-147.297,10.6428,10.6403
3.78,-4.82515,-4.88758,-147.297,10.5364,10.5339
3.79,-4.82691,-4.8887,-147.297,10.4311,10.4286
3.8,-4.82865,-4.88982,-147.296,10.3268,10.3243
3.81,-4.83037,-4.89093,-147.296,10.2235,10.2211
3.82,-4.83207,-4.89202,-147.295,10.1213,10.1189
3.83,-4.83376,-4.8931,-147.295,10.0201,10.0177
3.84,-4.83542,-4.89417,-147.295,9.91996,9.91747
3.85,-4.83708,-4.89523,-147.294,9.82077,9.81829
3.86,-4.83871,-4.89628,-147.294,9.72259,9.72009
3.87,-4.84033,-4.89732,-147.294,9.62539,9.62289
3.88,-4.84194,-4.89835,-147.293,9.52916,9.52664
3.89,-4.84352,-4.89937,-147.293,9.4339,9.43136
3.9,-4.8451,-4.90038,-147.292,9.33957,9.33705
3.91,-4.84665,-4.90138,-147.292,9.24621,9.24366
3.92,-4.84819,-4.90237,-147.292,9.15378,9.15122
3.93,-4.84972,-4.90335,-147.291,9.06227,9.0597
3.94,-4.85123,-4.90432,-147.291,8.97165,8.96911
3.95,-4.85272,-4.90528,-147.29,8.88196,8.87941
3.96,-4.8542,-4.90623,-147.29,8.79315,8.79062
3.97,-4.85567,-4.90717,-147.29,8.70523,8.7027
3.98,-4.85712,-4.9081,-147.289,8.61819,8.61567
3.99,-4.85855,-4.90902,-147.289,8.53203,8.52951
4,-4.85997,-4.90994,-147.289,8.44671,8.4442
4.01,-4.86138,-4.91084,-147.288,8.36228,8.35977
4.02,-4.86277,-4.91173,-147.288,8.27868,8.27616
4.03,-4.86415,-4.91262,-147.287,8.19592,8.1934
4.04,-4.86552,-4.9135,-147.287,8.114,8.11145
4.05,-4.86687,-4.91437,-147.287,8.03288,8.03033
4.06,-4.86821,-4.91522,-147.286,7.95255,7.95005
4.07,-4.86953,-4.91608,-147.286,7.87306,7.87054
4.08,-4.87084,-4.91692,-147.285,7.79436,7.79182
4.09,-4.87214,-4.91775,-147.285,7.71642,7.71391
4.1,-4.87343,-4.91858,-147.285,7.63927,7.63676
4.11,-4.8747,-4.91939,-147.284,7.56292,7.5604
4.12,-4.87596,-4.9202,-147.284,7.48731,7.48481
4.13,-4.8772,-4.921,-147.284,7.41246,7.40995
4.14,-4.87844,-4.9218,-147.283,7.33836,7.33586
4.15,-4.87966,-4.92258,-147.283,7.265,7.2625
4.16,-4.88087,-4.92336,-147.282,7.19236,7.18988
4.17,-4.88207,-4.92413,-147.282,7.12046,7.11796
